Osteoclasts	Osteoblasts	BoneMass	Values[maxC_Cbar]	Values[maxB_Bbar]	Values[C_bar]	Values[B_bar]	Values[gamma]
11.060000000000002	212.13	100.0	9.99933982822018	0.0	1.0606601717798212	212.13203435596427	-1.0
9.62927441342647	248.8243925156941	97.80777803012516	8.56861424164665	36.69235815972979	1.0606601717798212	212.13203435596427	-1.0
8.384212951421258	279.49930162445906	95.99353140401446	7.323552779641437	67.3672672684948	1.0606601717798212	212.13203435596427	-1.0
7.308561619232216	304.9787320488105	94.50501951343487	6.247901447452394	92.84669769284619	1.0606601717798212	212.13203435596427	-1.0
6.38309710337039	325.9985910768792	93.29567798361015	5.322436931590568	113.86655672091496	1.0606601717798212	212.13203435596427	-1.0
5.588705213676948	343.2036766168212	92.32475408002192	4.528045041897127	131.0716422608569	1.0606601717798212	212.13203435596427	-1.0
4.907642656333811	357.15279732474045	91.55695502266805	3.8469824845539904	145.02076296877613	1.0606601717798212	212.13203435596427	-1.0
4.323999979054638	368.3269969305465	90.96191351878879	3.263339807274816	156.19496257458223	1.0606601717798212	212.13203435596427	-1.0
3.823793435138736	377.13862035361086	90.51360717276917	2.763133263358914	165.0065859976466	1.0606601717798212	212.13203435596427	-1.0
3.394883489918949	383.9401756504323	90.18979465658873	2.334223318139127	171.80814129446804	1.0606601717798212	212.13203435596427	-1.0
3.0268170503145058	389.03252407029333	89.97149646881677	1.9661568785346841	176.90048971432907	1.0606601717798212	212.13203435596427	-1.0
2.710642647292153	392.6722180671731	89.84253070198329	1.6499824755123316	180.54018371120884	1.0606601717798212	212.13203435596427	-1.0
2.438723660128248	395.0779524828572	89.78910546652702	1.3780634883484268	182.94591812689288	1.0606601717798212	212.13203435596427	-1.0
2.204561995498955	396.4361663559247	89.79946528797056	1.1439018237191336	184.30413199996036	1.0606601717798212	212.13203435596427	-1.0
2.002637813933142	396.9058663096164	89.86358681233058	0.9419776421533206	184.77383195365206	1.0606601717798212	212.13203435596427	-1.0
1.828267201497747	396.6227551336174	89.97291843430772	0.7676070297179258	184.49072077765305	1.0606601717798212	212.13203435596427	-1.0
1.6774777097988853	395.7027506911447	90.12015841434274	0.6168175380190639	183.57071633518035	1.0606601717798212	212.13203435596427	-1.0
1.5469006770692182	394.24497605119376	90.29906634618393	0.4862405052893968	182.1129416952295	1.0606601717798212	212.13203435596427	-1.0
1.4336787783379221	392.33429478321136	90.50430329315053	0.37301860655810093	180.2022604272471	1.0606601717798212	212.13203435596427	-1.0
1.335387097007447	390.04345735507036	90.73129642604073	0.2747269252276259	177.91142299910604	1.0606601717798212	212.13203435596427	-1.0
1.2499660230145506	387.4349164949022	90.97612451140233	0.18930585123472943	175.3028821389379	1.0606601717798212	212.13203435596427	-1.0
1.1756643866286436	384.56236170338315	91.23542108630512	0.1150042148488224	172.43032734741888	1.0606601717798212	212.13203435596427	-1.0
1.110991382116672	381.4720160892684	91.50629259989311	0.05033121033685073	169.3399817333041	1.0606601717798212	212.13203435596427	-1.0
1.05467599602338	378.20373242920675	91.78616777544924	0.0	166.0716980732425	1.0606601717798212	212.13203435596427	-1.0
1.0056328121791318	374.7919199040173	92.06560773571803	0.0	162.659885548053	1.0606601717798212	212.13203435596427	-1.0
0.9629332221458865	371.2663280238661	92.3391469866299	0.0	159.13429366790183	1.0606601717798212	212.13203435596427	-1.0
0.925781195638315	367.65271041743404	92.60661451762783	0.0	155.52067606146971	1.0606601717798212	212.13203435596427	-1.0
0.8934929004939913	363.9733873217336	92.86788010777452	0.0	151.84135296576926	1.0606601717798212	212.13203435596427	-1.0
0.8654795586768206	360.2477228745509	93.12284890562806	0.0	148.11568851858664	1.0606601717798212	212.13203435596427	-1.0
0.8412330237846418	356.49253061531806	93.37145675785067	0.0	144.36049625935374	1.0606601717798212	212.13203435596427	-1.0
0.8203136440671881	352.7224185066643	93.61366617434761	0.0	140.59038415070006	1.0606601717798212	212.13203435596427	-1.0
0.8023400429717292	348.9500829857604	93.84946283532345	0.0	136.81804862979612	1.0606601717798212	212.13203435596427	-1.0
0.7869805089199102	345.18656000405394	94.0788525607037	0.0	133.05452564808968	1.0606601717798212	212.13203435596427	-1.0
0.7739457342429839	341.44143976231953	94.30185867453937	0.0	129.30940540635527	1.0606601717798212	212.13203435596427	-1.0
0.7629826858173738	337.72305075674745	94.51851970759853	0.0	125.59101640078313	1.0606601717798212	212.13203435596427	-1.0
0.7538694258043831	334.03861783341455	94.72888739029146	0.0	121.90658347745023	1.0606601717798212	212.13203435596427	-1.0
0.7464107288645178	330.39439824049487	94.93302489497032	0.0	118.2623638845306	1.0606601717798212	212.13203435596427	-1.0
0.7404343681923429	326.7957990029208	95.13100529313756	0.0	114.66376464695651	1.0606601717798212	212.13203435596427	-1.0
0.7357879640847226	323.2474784033424	95.32291019845141	0.0	111.1154440473781	1.0606601717798212	212.13203435596427	-1.0
0.7323363051059334	319.75343394290877	95.50882857039069	0.0	107.6213995869445	1.0606601717798212	212.13203435596427	-1.0
0.7299590670743065	316.31707876435826	95.6888556573986	0.0	104.18504440839394	1.0606601717798212	212.13203435596427	-1.0
0.7285488672691183	312.9413082144803	95.86309206132897	0.0	100.80927385851601	1.0606601717798212	212.13203435596427	-1.0
0.7280096015762566	309.62855795747885	96.0316429077167	0.0	97.49652360151453	1.0606601717798212	212.13203435596427	-1.0
0.7282550204006184	306.38085484428956	96.19461710848427	0.0	94.24882048832524	1.0606601717798212	212.13203435596427	-1.0
0.7292075068861429	303.1998615440038	96.35212670572679	0.0	91.06782718803953	1.0606601717798212	212.13203435596427	-1.0
0.7307970263662965	300.08691580446015	96.50428628667939	0.0	87.95488144849588	1.0606601717798212	212.13203435596427	-1.0
0.7329602212723033	297.0430650712275	96.65121246138362	0.0	84.91103071526322	1.0606601717798212	212.13203435596427	-1.0
0.7356396297142499	294.06909708871717	96.79302339572054	0.0	81.93706273275285	1.0606601717798212	212.13203435596427	-1.0
0.7387830094389997	291.16556701616645	96.9298383934212	0.0	79.03353266020213	1.0606601717798212	212.13203435596427	-1.0
0.7423427517712573	288.33282151235727	97.06177752154721	0.0	76.200787156393	1.0606601717798212	212.13203435596427	-1.0
0.7462753725221435	285.57102017971056	97.18896127461402	0.0	73.4389858237463	1.0606601717798212	212.13203435596427	-1.0
0.7505410689145907	282.8801547015664	97.31151027317009	0.0	70.74812034560216	1.0606601717798212	212.13203435596427	-1.0
0.7551033332106032	280.2600659613349	97.4295449931562	0.0	68.12803160537055	1.0606601717798212	212.13203435596427	-1.0
0.7599286151065783	277.7104593932126	97.54318552281691	0.0	65.57842503724834	1.0606601717798212	212.13203435596427	-1.0
0.7649860263363573	275.2309187754939	97.65255134437847	0.0	63.09888441952961	1.0606601717798212	212.13203435596427	-1.0
0.7702470816153852	272.82091865689495	97.75776113797353	0.0	60.68888430093068	1.0606601717798212	212.13203435596427	-1.0
0.7756854711869552	270.47983557397544	97.85893260564542	0.0	58.34780121801117	1.0606601717798212	212.13203435596427	-1.0
0.7812768607272867	268.2069582016211	97.95618231349887	0.0	56.074923845656826	1.0606601717798212	212.13203435596427	-1.0
0.7869987150591894	266.00149655829307	98.0496255502908	0.0	53.86946220232875	1.0606601717798212	212.13203435596427	-1.0
0.7928301425849201	263.86259037369007	98.13937620092796	0.0	51.7305560177258	1.0606601717798212	212.13203435596427	-1.0
0.7987517578043973	261.78931671045564	98.22554663356287	0.0	49.65728235449137	1.0606601717798212	212.13203435596427	-1.0
0.8047455596047088	259.78069692318036	98.30824759905894	0.0	47.648662567216036	1.0606601717798212	212.13203435596427	-1.0
0.8107948233284601	257.8357030256264	98.38758814177527	0.0	45.70366866966208	1.0606601717798212	212.13203435596427	-1.0
0.8168840049693331	255.9532635270032	98.46367552073978	0.0	43.82122917103891	1.0606601717798212	212.13203435596427	-1.0
0.8229986557508915	254.13226879897758	98.53661514028441	0.0	42.000234443013284	1.0606601717798212	212.13203435596427	-1.0
0.8291253460967244	252.3715760126455	98.60651048948381	0.0	40.23954165668121	1.0606601717798212	212.13203435596427	-1.0
0.8352515976075536	250.67001369440084	98.67346308964039	0.0	38.53797933843654	1.0606601717798212	212.13203435596427	-1.0
0.8413658220547885	249.02638593776837	98.73757244920469	0.0	36.8943515818041	1.0606601717798212	212.13203435596427	-1.0
0.8474572666106036	247.43947630087712	98.79893602560409	0.0	35.307441944912824	1.0606601717798212	212.13203435596427	-1.0
0.8535159644134139	245.90805142210027	98.85764919343544	0.0	33.77601706613598	1.0606601717798212	212.13203435596427	-1.0
0.8595326898290222	244.43086437733143	98.91380521859566	0.0	32.29883002136714	1.0606601717798212	212.13203435596427	-1.0
0.8654989178136158	243.0066578016621	98.96749523791357	0.0	30.874623445697807	1.0606601717798212	212.13203435596427	-1.0
0.8714067867965322	241.63416679635128	99.01880824389141	0.0	29.502132440386987	1.0606601717798212	212.13203435596427	-1.0
0.8772490646508246	240.31212163674815	99.06783107423195	0.0	28.18008728078388	1.0606601717798212	212.13203435596427	-1.0
0.8830191173279178	239.0392502972766	99.1146484058076	0.0	26.9072159413123	1.0606601717798212	212.13203435596427	-1.0
0.8887108797719312	237.81428080739445	99.15934275276963	0.0	25.68224645143016	1.0606601717798212	212.13203435596427	-1.0
0.8943188288181183	236.63594344942857	99.20199446853171	0.0	24.5039090934643	1.0606601717798212	212.13203435596427	-1.0
0.8998379578094007	235.50297280826064	99.2426817513723	0.0	23.370938452296343	1.0606601717798212	212.13203435596427	-1.0
0.9052637526161628	234.4141096848903	99.28148065337743	0.0	22.282075328926027	1.0606601717798212	212.13203435596427	-1.0
0.9105921689634177	233.3681028774718	99.31846509255253	0.0	21.23606852150752	1.0606601717798212	212.13203435596427	-1.0
0.9158196107939109	232.36371084065365	99.35370686784111	0.0	20.23167648468936	1.0606601717798212	212.13203435596427	-1.0
0.9209429095492361	231.3997032281337	99.38727567686722	0.0	19.267668872169423	1.0606601717798212	212.13203435596427	-1.0
0.9259593042483675	230.47486232375527	99.41923913620977	0.0	18.34282796779098	1.0606601717798212	212.13203435596427	-1.0
0.9308664222257275	229.58798436756027	99.44966280400844	0.0	17.455950011595974	1.0606601717798212	212.13203435596427	-1.0
0.9356622604793154	228.7378807795455	99.47861020474917	0.0	16.605846423581198	1.0606601717798212	212.13203435596427	-1.0
0.9403451675151819	227.92337928707838	99.5061428560407	0.0	15.791344931114082	1.0606601717798212	212.13203435596427	-1.0
0.9449138256621001	227.14332495864994	99.53232029722874	0.0	15.011290602685648	1.0606601717798212	212.13203435596427	-1.0
0.9493672337932147	226.39658114819085	99.55720011968874	0.0	14.264546792226554	1.0606601717798212	212.13203435596427	-1.0
0.9537046904277457	225.6820303528791	99.58083799865436	0.0	13.549995996914845	1.0606601717798212	212.13203435596427	-1.0
0.9579257771964607	224.99857498759062	99.60328772643219	0.0	12.86654063162635	1.0606601717798212	212.13203435596427	-1.0
0.9620303426337938	224.3451380797097	99.62460124686017	0.0	12.213103723745405	1.0606601717798212	212.13203435596427	-1.0
0.9660184863154434	223.72066388619274	99.64482869088606	0.0	11.588629530228445	1.0606601717798212	212.13203435596427	-1.0
0.9698905433275075	223.12411843629596	99.66401841312997	0.0	10.992084080331693	1.0606601717798212	212.13203435596427	-1.0
0.9736470690584018	222.55449000297963	99.68221702930761	0.0	10.422455647015369	1.0606601717798212	212.13203435596427	-1.0
0.9772888243381626	222.01078950523433	99.69946945439438	0.0	9.878755149270035	1.0606601717798212	212.13203435596427	-1.0
0.980816760927726	221.49205084430963	99.71581894142288	0.0	9.360016488345337	1.0606601717798212	212.13203435596427	-1.0
0.9842320073599506	220.9973311766334	99.73130712078297	0.0	8.86529682066913	1.0606601717798212	212.13203435596427	-1.0
0.9875358551727041	220.52571112574287	99.74597403995976	0.0	8.39367676977858	1.0606601717798212	212.13203435596427	-1.0
0.9907297455099473	220.07629493646394	99.75985820355	0.0	7.944260580499645	1.0606601717798212	212.13203435596427	-1.0
0.9938152561405023	219.64821057370344	99.7729966135293	0.0	7.516176217739144	1.0606601717798212	212.13203435596427	-1.0
0.9967940888788904	219.24060976874114	99.78542480960012	0.0	7.108575412776844	1.0606601717798212	212.13203435596427	-1.0
